# tau gt_up gt_dn
0 -0.5 -0.5
0.009 -0.49205 -0.49205
0.018 -0.484297 -0.484297
0.027 -0.476735 -0.476735
0.036 -0.469357 -0.469357
0.045 -0.462158 -0.462158
0.054 -0.455133 -0.455133
0.063 -0.448277 -0.448277
0.072 -0.441585 -0.441585
0.081 -0.435052 -0.435052
0.09 -0.428672 -0.428672
0.099 -0.422443 -0.422443
0.108 -0.416358 -0.416358
0.117 -0.410414 -0.410414
0.126 -0.404607 -0.404607
0.135 -0.398933 -0.398933
0.144 -0.393388 -0.393388
0.153 -0.387967 -0.387967
0.162 -0.382668 -0.382668
0.171 -0.377487 -0.377487
0.18 -0.372421 -0.372421
0.189 -0.367465 -0.367465
0.198 -0.362618 -0.362618
0.207 -0.357876 -0.357876
0.216 -0.353235 -0.353235
0.225 -0.348693 -0.348693
0.234 -0.344248 -0.344248
0.243 -0.339895 -0.339895
0.252 -0.335634 -0.335634
0.261 -0.331461 -0.331461
0.27 -0.327373 -0.327373
0.279 -0.323369 -0.323369
0.288 -0.319445 -0.319445
0.297 -0.315601 -0.315601
0.306 -0.311833 -0.311833
0.315 -0.308139 -0.308139
0.324 -0.304517 -0.304517
0.333 -0.300966 -0.300966
0.342 -0.297483 -0.297483
0.351 -0.294067 -0.294067
0.36 -0.290716 -0.290716
0.369 -0.287427 -0.287427
0.378 -0.2842 -0.2842
0.387 -0.281033 -0.281033
0.396 -0.277923 -0.277923
0.405 -0.27487 -0.27487
0.414 -0.271872 -0.271872
0.423 -0.268928 -0.268928
0.432 -0.266035 -0.266035
0.441 -0.263193 -0.263193
0.45 -0.260401 -0.260401
0.459 -0.257657 -0.257657
0.468 -0.25496 -0.25496
0.477 -0.252308 -0.252308
0.486 -0.249701 -0.249701
0.495 -0.247137 -0.247137
0.504 -0.244616 -0.244616
0.513 -0.242136 -0.242136
0.522 -0.239696 -0.239696
0.531 -0.237295 -0.237295
0.54 -0.234932 -0.234932
0.549 -0.232607 -0.232607
0.558 -0.230318 -0.230318
0.567 -0.228064 -0.228064
0.576 -0.225845 -0.225845
0.585 -0.22366 -0.22366
0.594 -0.221508 -0.221508
0.603 -0.219387 -0.219387
0.612 -0.217299 -0.217299
0.621 -0.21524 -0.21524
0.63 -0.213212 -0.213212
0.639 -0.211213 -0.211213
0.648 -0.209243 -0.209243
0.657 -0.2073 -0.2073
0.666 -0.205385 -0.205385
0.675 -0.203496 -0.203496
0.684 -0.201634 -0.201634
0.693 -0.199797 -0.199797
0.702 -0.197984 -0.197984
0.711 -0.196197 -0.196197
0.72 -0.194432 -0.194432
0.729 -0.192692 -0.192692
0.738 -0.190974 -0.190974
0.747 -0.189278 -0.189278
0.756 -0.187604 -0.187604
0.765 -0.185951 -0.185951
0.774 -0.18432 -0.18432
0.783 -0.182709 -0.182709
0.792 -0.181117 -0.181117
0.801 -0.179546 -0.179546
0.81 -0.177994 -0.177994
0.819 -0.17646 -0.17646
0.828 -0.174945 -0.174945
0.837 -0.173448 -0.173448
0.846 -0.171969 -0.171969
0.855 -0.170507 -0.170507
0.864 -0.169063 -0.169063
0.873 -0.167635 -0.167635
0.882 -0.166223 -0.166223
0.891 -0.164828 -0.164828
0.9 -0.163448 -0.163448
0.909 -0.162084 -0.162084
0.918 -0.160735 -0.160735
0.927 -0.159401 -0.159401
0.936 -0.158082 -0.158082
0.945 -0.156777 -0.156777
0.954 -0.155486 -0.155486
0.963 -0.154209 -0.154209
0.972 -0.152946 -0.152946
0.981 -0.151696 -0.151696
0.99 -0.150459 -0.150459
0.999 -0.149236 -0.149236
1.008 -0.148025 -0.148025
1.017 -0.146826 -0.146826
1.026 -0.14564 -0.14564
1.035 -0.144466 -0.144466
1.044 -0.143304 -0.143304
1.053 -0.142153 -0.142153
1.062 -0.141014 -0.141014
1.071 -0.139887 -0.139887
1.08 -0.13877 -0.13877
1.089 -0.137665 -0.137665
1.098 -0.13657 -0.13657
1.107 -0.135486 -0.135486
1.116 -0.134413 -0.134413
1.125 -0.13335 -0.13335
1.134 -0.132297 -0.132297
1.143 -0.131254 -0.131254
1.152 -0.130221 -0.130221
1.161 -0.129198 -0.129198
1.17 -0.128184 -0.128184
1.179 -0.12718 -0.12718
1.188 -0.126185 -0.126185
1.197 -0.125199 -0.125199
1.206 -0.124223 -0.124223
1.215 -0.123255 -0.123255
1.224 -0.122296 -0.122296
1.233 -0.121346 -0.121346
1.242 -0.120404 -0.120404
1.251 -0.119471 -0.119471
1.26 -0.118546 -0.118546
1.269 -0.11763 -0.11763
1.278 -0.116722 -0.116722
1.287 -0.115821 -0.115821
1.296 -0.114929 -0.114929
1.305 -0.114044 -0.114044
1.314 -0.113167 -0.113167
1.323 -0.112298 -0.112298
1.332 -0.111437 -0.111437
1.341 -0.110582 -0.110582
1.35 -0.109735 -0.109735
1.359 -0.108896 -0.108896
1.368 -0.108064 -0.108064
1.377 -0.107238 -0.107238
1.386 -0.10642 -0.10642
1.395 -0.105609 -0.105609
1.404 -0.104804 -0.104804
1.413 -0.104006 -0.104006
1.422 -0.103215 -0.103215
1.431 -0.102431 -0.102431
1.44 -0.101653 -0.101653
1.449 -0.100882 -0.100882
1.458 -0.100117 -0.100117
1.467 -0.0993583 -0.0993583
1.476 -0.0986059 -0.0986059
1.485 -0.0978597 -0.0978597
1.494 -0.0971197 -0.0971197
1.503 -0.0963857 -0.0963857
1.512 -0.0956578 -0.0956578
1.521 -0.0949357 -0.0949357
1.53 -0.0942196 -0.0942196
1.539 -0.0935092 -0.0935092
1.548 -0.0928046 -0.0928046
1.557 -0.0921057 -0.0921057
1.566 -0.0914124 -0.0914124
1.575 -0.0907247 -0.0907247
1.584 -0.0900426 -0.0900426
1.593 -0.0893659 -0.0893659
1.602 -0.0886946 -0.0886946
1.611 -0.0880286 -0.0880286
1.62 -0.087368 -0.087368
1.629 -0.0867126 -0.0867126
1.638 -0.0860624 -0.0860624
1.647 -0.0854174 -0.0854174
1.656 -0.0847775 -0.0847775
1.665 -0.0841426 -0.0841426
1.674 -0.0835128 -0.0835128
1.683 -0.0828879 -0.0828879
1.692 -0.0822679 -0.0822679
1.701 -0.0816527 -0.0816527
1.71 -0.0810424 -0.0810424
1.719 -0.0804369 -0.0804369
1.728 -0.0798361 -0.0798361
1.737 -0.07924 -0.07924
1.746 -0.0786485 -0.0786485
1.755 -0.0780616 -0.0780616
1.764 -0.0774793 -0.0774793
1.773 -0.0769015 -0.0769015
1.782 -0.0763282 -0.0763282
1.791 -0.0757594 -0.0757594
1.8 -0.0751949 -0.0751949
1.809 -0.0746348 -0.0746348
1.818 -0.074079 -0.074079
1.827 -0.0735274 -0.0735274
1.836 -0.0729802 -0.0729802
1.845 -0.0724371 -0.0724371
1.854 -0.0718982 -0.0718982
1.863 -0.0713635 -0.0713635
1.872 -0.0708328 -0.0708328
1.881 -0.0703062 -0.0703062
1.89 -0.0697837 -0.0697837
1.899 -0.0692651 -0.0692651
1.908 -0.0687505 -0.0687505
1.917 -0.0682398 -0.0682398
1.926 -0.067733 -0.067733
1.935 -0.0672301 -0.0672301
1.944 -0.066731 -0.066731
1.953 -0.0662357 -0.0662357
1.962 -0.0657442 -0.0657442
1.971 -0.0652564 -0.0652564
1.98 -0.0647723 -0.0647723
1.989 -0.0642918 -0.0642918
1.998 -0.0638151 -0.0638151
2.007 -0.0633419 -0.0633419
2.016 -0.0628723 -0.0628723
2.025 -0.0624062 -0.0624062
2.034 -0.0619437 -0.0619437
2.043 -0.0614847 -0.0614847
2.052 -0.0610291 -0.0610291
2.061 -0.060577 -0.060577
2.07 -0.0601283 -0.0601283
2.079 -0.0596829 -0.0596829
2.088 -0.0592409 -0.0592409
2.097 -0.0588023 -0.0588023
2.106 -0.0583669 -0.0583669
2.115 -0.0579348 -0.0579348
2.124 -0.057506 -0.057506
2.133 -0.0570804 -0.0570804
2.142 -0.056658 -0.056658
2.151 -0.0562387 -0.0562387
2.16 -0.0558226 -0.0558226
2.169 -0.0554096 -0.0554096
2.178 -0.0549997 -0.0549997
2.187 -0.0545929 -0.0545929
2.196 -0.0541891 -0.0541891
2.205 -0.0537884 -0.0537884
2.214 -0.0533906 -0.0533906
2.223 -0.0529959 -0.0529959
2.232 -0.052604 -0.052604
2.241 -0.0522151 -0.0522151
2.25 -0.0518292 -0.0518292
2.259 -0.051446 -0.051446
2.268 -0.0510658 -0.0510658
2.277 -0.0506884 -0.0506884
2.286 -0.0503138 -0.0503138
2.295 -0.049942 -0.049942
2.304 -0.049573 -0.049573
2.313 -0.0492067 -0.0492067
2.322 -0.0488432 -0.0488432
2.331 -0.0484823 -0.0484823
2.34 -0.0481242 -0.0481242
2.349 -0.0477687 -0.0477687
2.358 -0.0474159 -0.0474159
2.367 -0.0470657 -0.0470657
2.376 -0.0467181 -0.0467181
2.385 -0.0463731 -0.0463731
2.394 -0.0460306 -0.0460306
2.403 -0.0456907 -0.0456907
2.412 -0.0453533 -0.0453533
2.421 -0.0450185 -0.0450185
2.43 -0.0446861 -0.0446861
2.439 -0.0443562 -0.0443562
2.448 -0.0440287 -0.0440287
2.457 -0.0437037 -0.0437037
2.466 -0.0433811 -0.0433811
2.475 -0.0430609 -0.0430609
2.484 -0.042743 -0.042743
2.493 -0.0424275 -0.0424275
2.502 -0.0421144 -0.0421144
2.511 -0.0418036 -0.0418036
2.52 -0.0414951 -0.0414951
2.529 -0.0411888 -0.0411888
2.538 -0.0408849 -0.0408849
2.547 -0.0405832 -0.0405832
2.556 -0.0402837 -0.0402837
2.565 -0.0399865 -0.0399865
2.574 -0.0396914 -0.0396914
2.583 -0.0393986 -0.0393986
2.592 -0.0391079 -0.0391079
2.601 -0.0388194 -0.0388194
2.61 -0.038533 -0.038533
2.619 -0.0382487 -0.0382487
2.628 -0.0379665 -0.0379665
2.637 -0.0376864 -0.0376864
2.646 -0.0374084 -0.0374084
2.655 -0.0371325 -0.0371325
2.664 -0.0368586 -0.0368586
2.673 -0.0365867 -0.0365867
2.682 -0.0363168 -0.0363168
2.691 -0.0360489 -0.0360489
2.7 -0.0357831 -0.0357831
2.709 -0.0355191 -0.0355191
2.718 -0.0352572 -0.0352572
2.727 -0.0349971 -0.0349971
2.736 -0.034739 -0.034739
2.745 -0.0344828 -0.0344828
2.754 -0.0342285 -0.0342285
2.763 -0.0339761 -0.0339761
2.772 -0.0337255 -0.0337255
2.781 -0.0334768 -0.0334768
2.79 -0.0332299 -0.0332299
2.799 -0.0329849 -0.0329849
2.808 -0.0327417 -0.0327417
2.817 -0.0325002 -0.0325002
2.826 -0.0322606 -0.0322606
2.835 -0.0320227 -0.0320227
2.844 -0.0317866 -0.0317866
2.853 -0.0315522 -0.0315522
2.862 -0.0313195 -0.0313195
2.871 -0.0310886 -0.0310886
2.88 -0.0308594 -0.0308594
2.889 -0.0306318 -0.0306318
2.898 -0.030406 -0.030406
2.907 -0.0301818 -0.0301818
2.916 -0.0299593 -0.0299593
2.925 -0.0297384 -0.0297384
2.934 -0.0295192 -0.0295192
2.943 -0.0293015 -0.0293015
2.952 -0.0290855 -0.0290855
2.961 -0.0288711 -0.0288711
2.97 -0.0286582 -0.0286582
2.979 -0.0284469 -0.0284469
2.988 -0.0282372 -0.0282372
2.997 -0.028029 -0.028029
3.006 -0.0278224 -0.0278224
3.015 -0.0276173 -0.0276173
3.024 -0.0274137 -0.0274137
3.033 -0.0272116 -0.0272116
3.042 -0.027011 -0.027011
3.051 -0.0268119 -0.0268119
3.06 -0.0266143 -0.0266143
3.069 -0.0264181 -0.0264181
3.078 -0.0262233 -0.0262233
3.087 -0.02603 -0.02603
3.096 -0.0258381 -0.0258381
3.105 -0.0256477 -0.0256477
3.114 -0.0254586 -0.0254586
3.123 -0.0252709 -0.0252709
3.132 -0.0250847 -0.0250847
3.141 -0.0248998 -0.0248998
3.15 -0.0247162 -0.0247162
3.159 -0.024534 -0.024534
3.168 -0.0243532 -0.0243532
3.177 -0.0241737 -0.0241737
3.186 -0.0239955 -0.0239955
3.195 -0.0238186 -0.0238186
3.204 -0.0236431 -0.0236431
3.213 -0.0234688 -0.0234688
3.222 -0.0232958 -0.0232958
3.231 -0.0231241 -0.0231241
3.24 -0.0229536 -0.0229536
3.249 -0.0227845 -0.0227845
3.258 -0.0226165 -0.0226165
3.267 -0.0224498 -0.0224498
3.276 -0.0222844 -0.0222844
3.285 -0.0221201 -0.0221201
3.294 -0.0219571 -0.0219571
3.303 -0.0217952 -0.0217952
3.312 -0.0216346 -0.0216346
3.321 -0.0214751 -0.0214751
3.33 -0.0213168 -0.0213168
3.339 -0.0211597 -0.0211597
3.348 -0.0210038 -0.0210038
3.357 -0.020849 -0.020849
3.366 -0.0206953 -0.0206953
3.375 -0.0205428 -0.0205428
3.384 -0.0203914 -0.0203914
3.393 -0.0202411 -0.0202411
3.402 -0.0200919 -0.0200919
3.411 -0.0199438 -0.0199438
3.42 -0.0197968 -0.0197968
3.429 -0.0196509 -0.0196509
3.438 -0.0195061 -0.0195061
3.447 -0.0193623 -0.0193623
3.456 -0.0192196 -0.0192196
3.465 -0.019078 -0.019078
3.474 -0.0189374 -0.0189374
3.483 -0.0187978 -0.0187978
3.492 -0.0186592 -0.0186592
3.501 -0.0185217 -0.0185217
3.51 -0.0183852 -0.0183852
3.519 -0.0182497 -0.0182497
3.528 -0.0181152 -0.0181152
3.537 -0.0179817 -0.0179817
3.546 -0.0178492 -0.0178492
3.555 -0.0177176 -0.0177176
3.564 -0.0175871 -0.0175871
3.573 -0.0174574 -0.0174574
3.582 -0.0173288 -0.0173288
3.591 -0.0172011 -0.0172011
3.6 -0.0170743 -0.0170743
3.609 -0.0169485 -0.0169485
3.618 -0.0168236 -0.0168236
3.627 -0.0166996 -0.0166996
3.636 -0.0165765 -0.0165765
3.645 -0.0164543 -0.0164543
3.654 -0.0163331 -0.0163331
3.663 -0.0162127 -0.0162127
3.672 -0.0160932 -0.0160932
3.681 -0.0159746 -0.0159746
3.69 -0.0158569 -0.0158569
3.699 -0.01574 -0.01574
3.708 -0.015624 -0.015624
3.717 -0.0155089 -0.0155089
3.726 -0.0153946 -0.0153946
3.735 -0.0152811 -0.0152811
3.744 -0.0151685 -0.0151685
3.753 -0.0150567 -0.0150567
3.762 -0.0149457 -0.0149457
3.771 -0.0148356 -0.0148356
3.78 -0.0147263 -0.0147263
3.789 -0.0146177 -0.0146177
3.798 -0.01451 -0.01451
3.807 -0.0144031 -0.0144031
3.816 -0.0142969 -0.0142969
3.825 -0.0141916 -0.0141916
3.834 -0.014087 -0.014087
3.843 -0.0139832 -0.0139832
3.852 -0.0138801 -0.0138801
3.861 -0.0137778 -0.0137778
3.87 -0.0136763 -0.0136763
3.879 -0.0135755 -0.0135755
3.888 -0.0134755 -0.0134755
3.897 -0.0133761 -0.0133761
3.906 -0.0132776 -0.0132776
3.915 -0.0131797 -0.0131797
3.924 -0.0130826 -0.0130826
3.933 -0.0129862 -0.0129862
3.942 -0.0128905 -0.0128905
3.951 -0.0127955 -0.0127955
3.96 -0.0127012 -0.0127012
3.969 -0.0126076 -0.0126076
3.978 -0.0125147 -0.0125147
3.987 -0.0124224 -0.0124224
3.996 -0.0123309 -0.0123309
4.005 -0.01224 -0.01224
4.014 -0.0121498 -0.0121498
4.023 -0.0120603 -0.0120603
4.032 -0.0119714 -0.0119714
4.041 -0.0118832 -0.0118832
4.05 -0.0117956 -0.0117956
4.059 -0.0117087 -0.0117087
4.068 -0.0116224 -0.0116224
4.077 -0.0115367 -0.0115367
4.086 -0.0114517 -0.0114517
4.095 -0.0113673 -0.0113673
4.104 -0.0112835 -0.0112835
4.113 -0.0112004 -0.0112004
4.122 -0.0111178 -0.0111178
4.131 -0.0110359 -0.0110359
4.14 -0.0109546 -0.0109546
4.149 -0.0108739 -0.0108739
4.158 -0.0107937 -0.0107937
4.167 -0.0107142 -0.0107142
4.176 -0.0106352 -0.0106352
4.185 -0.0105568 -0.0105568
4.194 -0.010479 -0.010479
4.203 -0.0104018 -0.0104018
4.212 -0.0103252 -0.0103252
4.221 -0.0102491 -0.0102491
4.23 -0.0101735 -0.0101735
4.239 -0.0100986 -0.0100986
4.248 -0.0100241 -0.0100241
4.257 -0.00995027 -0.00995027
4.266 -0.00987694 -0.00987694
4.275 -0.00980415 -0.00980415
4.284 -0.0097319 -0.0097319
4.293 -0.00966018 -0.00966018
4.302 -0.00958899 -0.00958899
4.311 -0.00951833 -0.00951833
4.32 -0.00944818 -0.00944818
4.329 -0.00937855 -0.00937855
4.338 -0.00930944 -0.00930944
4.347 -0.00924083 -0.00924083
4.356 -0.00917273 -0.00917273
4.365 -0.00910514 -0.00910514
4.374 -0.00903804 -0.00903804
4.383 -0.00897143 -0.00897143
4.392 -0.00890532 -0.00890532
4.401 -0.00883969 -0.00883969
4.41 -0.00877454 -0.00877454
4.419 -0.00870988 -0.00870988
4.428 -0.00864569 -0.00864569
4.437 -0.00858198 -0.00858198
4.446 -0.00851874 -0.00851874
4.455 -0.00845596 -0.00845596
4.464 -0.00839364 -0.00839364
4.473 -0.00833178 -0.00833178
4.482 -0.00827038 -0.00827038
4.491 -0.00820944 -0.00820944
4.5 -0.00814894 -0.00814894
4.509 -0.00808888 -0.00808888
4.518 -0.00802927 -0.00802927
4.527 -0.0079701 -0.0079701
4.536 -0.00791137 -0.00791137
4.545 -0.00785306 -0.00785306
4.554 -0.00779519 -0.00779519
4.563 -0.00773775 -0.00773775
4.572 -0.00768072 -0.00768072
4.581 -0.00762412 -0.00762412
4.59 -0.00756793 -0.00756793
4.599 -0.00751216 -0.00751216
4.608 -0.0074568 -0.0074568
4.617 -0.00740185 -0.00740185
4.626 -0.0073473 -0.0073473
4.635 -0.00729316 -0.00729316
4.644 -0.00723941 -0.00723941
4.653 -0.00718606 -0.00718606
4.662 -0.0071331 -0.0071331
4.671 -0.00708054 -0.00708054
4.68 -0.00702836 -0.00702836
4.689 -0.00697656 -0.00697656
4.698 -0.00692515 -0.00692515
4.707 -0.00687412 -0.00687412
4.716 -0.00682346 -0.00682346
4.725 -0.00677317 -0.00677317
4.734 -0.00672326 -0.00672326
4.743 -0.00667371 -0.00667371
4.752 -0.00662453 -0.00662453
4.761 -0.00657571 -0.00657571
4.77 -0.00652725 -0.00652725
4.779 -0.00647915 -0.00647915
4.788 -0.0064314 -0.0064314
4.797 -0.00638401 -0.00638401
4.806 -0.00633696 -0.00633696
4.815 -0.00629026 -0.00629026
4.824 -0.0062439 -0.0062439
4.833 -0.00619789 -0.00619789
4.842 -0.00615222 -0.00615222
4.851 -0.00610688 -0.00610688
4.86 -0.00606187 -0.00606187
4.869 -0.0060172 -0.0060172
4.878 -0.00597286 -0.00597286
4.887 -0.00592884 -0.00592884
4.896 -0.00588515 -0.00588515
4.905 -0.00584178 -0.00584178
4.914 -0.00579873 -0.00579873
4.923 -0.005756 -0.005756
4.932 -0.00571358 -0.00571358
4.941 -0.00567147 -0.00567147
4.95 -0.00562968 -0.00562968
4.959 -0.00558819 -0.00558819
4.968 -0.00554701 -0.00554701
4.977 -0.00550613 -0.00550613
4.986 -0.00546555 -0.00546555
4.995 -0.00542527 -0.00542527
5.004 -0.00538529 -0.00538529
5.013 -0.00534561 -0.00534561
5.022 -0.00530621 -0.00530621
5.031 -0.00526711 -0.00526711
5.04 -0.00522829 -0.00522829
5.049 -0.00518976 -0.00518976
5.058 -0.00515152 -0.00515152
5.067 -0.00511355 -0.00511355
5.076 -0.00507587 -0.00507587
5.085 -0.00503846 -0.00503846
5.094 -0.00500133 -0.00500133
5.103 -0.00496448 -0.00496448
5.112 -0.00492789 -0.00492789
5.121 -0.00489158 -0.00489158
5.13 -0.00485553 -0.00485553
5.139 -0.00481975 -0.00481975
5.148 -0.00478423 -0.00478423
5.157 -0.00474897 -0.00474897
5.166 -0.00471397 -0.00471397
5.175 -0.00467923 -0.00467923
5.184 -0.00464475 -0.00464475
5.193 -0.00461052 -0.00461052
5.202 -0.00457655 -0.00457655
5.211 -0.00454282 -0.00454282
5.22 -0.00450934 -0.00450934
5.229 -0.00447611 -0.00447611
5.238 -0.00444312 -0.00444312
5.247 -0.00441038 -0.00441038
5.256 -0.00437788 -0.00437788
5.265 -0.00434562 -0.00434562
5.274 -0.00431359 -0.00431359
5.283 -0.0042818 -0.0042818
5.292 -0.00425025 -0.00425025
5.301 -0.00421893 -0.00421893
5.31 -0.00418784 -0.00418784
5.319 -0.00415697 -0.00415697
5.328 -0.00412634 -0.00412634
5.337 -0.00409593 -0.00409593
5.346 -0.00406575 -0.00406575
5.355 -0.00403578 -0.00403578
5.364 -0.00400604 -0.00400604
5.373 -0.00397652 -0.00397652
5.382 -0.00394722 -0.00394722
5.391 -0.00391813 -0.00391813
5.4 -0.00388925 -0.00388925
5.409 -0.00386059 -0.00386059
5.418 -0.00383214 -0.00383214
5.427 -0.0038039 -0.0038039
5.436 -0.00377587 -0.00377587
5.445 -0.00374804 -0.00374804
5.454 -0.00372042 -0.00372042
5.463 -0.003693 -0.003693
5.472 -0.00366579 -0.00366579
5.481 -0.00363877 -0.00363877
5.49 -0.00361196 -0.00361196
5.499 -0.00358534 -0.00358534
5.508 -0.00355892 -0.00355892
5.517 -0.00353269 -0.00353269
5.526 -0.00350666 -0.00350666
5.535 -0.00348082 -0.00348082
5.544 -0.00345516 -0.00345516
5.553 -0.0034297 -0.0034297
5.562 -0.00340443 -0.00340443
5.571 -0.00337934 -0.00337934
5.58 -0.00335443 -0.00335443
5.589 -0.00332971 -0.00332971
5.598 -0.00330518 -0.00330518
5.607 -0.00328082 -0.00328082
5.616 -0.00325664 -0.00325664
5.625 -0.00323264 -0.00323264
5.634 -0.00320882 -0.00320882
5.643 -0.00318517 -0.00318517
5.652 -0.0031617 -0.0031617
5.661 -0.0031384 -0.0031384
5.67 -0.00311527 -0.00311527
5.679 -0.00309231 -0.00309231
5.688 -0.00306953 -0.00306953
5.697 -0.0030469 -0.0030469
5.706 -0.00302445 -0.00302445
5.715 -0.00300216 -0.00300216
5.724 -0.00298004 -0.00298004
5.733 -0.00295808 -0.00295808
5.742 -0.00293628 -0.00293628
5.751 -0.00291464 -0.00291464
5.76 -0.00289316 -0.00289316
5.769 -0.00287184 -0.00287184
5.778 -0.00285068 -0.00285068
5.787 -0.00282967 -0.00282967
5.796 -0.00280881 -0.00280881
5.805 -0.00278812 -0.00278812
5.814 -0.00276757 -0.00276757
5.823 -0.00274717 -0.00274717
5.832 -0.00272693 -0.00272693
5.841 -0.00270683 -0.00270683
5.85 -0.00268688 -0.00268688
5.859 -0.00266708 -0.00266708
5.868 -0.00264743 -0.00264743
5.877 -0.00262792 -0.00262792
5.886 -0.00260855 -0.00260855
5.895 -0.00258933 -0.00258933
5.904 -0.00257025 -0.00257025
5.913 -0.00255131 -0.00255131
5.922 -0.00253251 -0.00253251
5.931 -0.00251384 -0.00251384
5.94 -0.00249532 -0.00249532
5.949 -0.00247693 -0.00247693
5.958 -0.00245867 -0.00245867
5.967 -0.00244056 -0.00244056
5.976 -0.00242257 -0.00242257
5.985 -0.00240472 -0.00240472
5.994 -0.002387 -0.002387
6.003 -0.0023694 -0.0023694
6.012 -0.00235194 -0.00235194
6.021 -0.00233461 -0.00233461
6.03 -0.00231741 -0.00231741
6.039 -0.00230033 -0.00230033
6.048 -0.00228338 -0.00228338
6.057 -0.00226655 -0.00226655
6.066 -0.00224985 -0.00224985
6.075 -0.00223327 -0.00223327
6.084 -0.00221681 -0.00221681
6.093 -0.00220047 -0.00220047
6.102 -0.00218426 -0.00218426
6.111 -0.00216816 -0.00216816
6.12 -0.00215218 -0.00215218
6.129 -0.00213632 -0.00213632
6.138 -0.00212058 -0.00212058
6.147 -0.00210495 -0.00210495
6.156 -0.00208944 -0.00208944
6.165 -0.00207404 -0.00207404
6.174 -0.00205876 -0.00205876
6.183 -0.00204358 -0.00204358
6.192 -0.00202852 -0.00202852
6.201 -0.00201357 -0.00201357
6.21 -0.00199874 -0.00199874
6.219 -0.00198401 -0.00198401
6.228 -0.00196939 -0.00196939
6.237 -0.00195487 -0.00195487
6.246 -0.00194047 -0.00194047
6.255 -0.00192617 -0.00192617
6.264 -0.00191197 -0.00191197
6.273 -0.00189788 -0.00189788
6.282 -0.00188389 -0.00188389
6.291 -0.00187001 -0.00187001
6.3 -0.00185623 -0.00185623
6.309 -0.00184255 -0.00184255
6.318 -0.00182897 -0.00182897
6.327 -0.00181549 -0.00181549
6.336 -0.00180212 -0.00180212
6.345 -0.00178883 -0.00178883
6.354 -0.00177565 -0.00177565
6.363 -0.00176257 -0.00176257
6.372 -0.00174958 -0.00174958
6.381 -0.00173668 -0.00173668
6.39 -0.00172389 -0.00172389
6.399 -0.00171118 -0.00171118
6.408 -0.00169857 -0.00169857
6.417 -0.00168605 -0.00168605
6.426 -0.00167363 -0.00167363
6.435 -0.0016613 -0.0016613
